节点inter_Subt4__2__25.txt的数据

Date: Tue Dec 26 15:45:48 CST 2023
User: L-lab
Spectrometer: HR200306
触发模式: 0
积分时间 (秒): 1.000000E-1
Scans to average: 1
启用暗噪声校正: true
启用非线性校正: false
滑动平均宽度: 0
X轴模式: Wavelengths
Number of Pixels in Spectrum: 2110
>>>>>Begin Spectral Data<<<<<
183.73	-47.33
184.199	16.67
184.668	46.67
185.137	-44.33
185.606	37.67
186.075	43.67
186.543	36.67
187.012	16.67
187.481	-91.33
187.95	73.67
188.419	-53.33
188.887	-35.33
189.356	-68.33
189.825	-37.33
190.294	-37.33
190.762	-30.33
191.231	-114.33
191.7	-12.33
192.168	-91.33
192.637	-63.33
193.105	-32.33
193.574	-4.33
194.043	13.67
194.511	-62.33
194.98	-35.33
195.448	-18.33
195.917	-96.33
196.385	-43.33
196.854	-37.33
197.322	-46.33
197.79	-27.33
198.259	-105.33
198.727	-89.33
199.195	-77.33
199.664	6.67
200.132	-46.33
200.6	4.67
201.069	-74.33
201.537	-135.33
202.005	0.67
202.473	-87.33
202.942	-30.33
203.41	-45.33
203.878	-72.33
204.346	-77.33
204.814	-102.33
205.282	-103.33
205.75	-25.33
206.218	-31.33
206.686	-87.33
207.155	-26.33
207.623	-69.33
208.091	-90.33
208.558	-31.33
209.026	-93.33
209.494	-14.33
209.962	-89.33
210.43	-29.33
210.898	-104.33
211.366	-85.33
211.834	-91.33
212.302	-97.33
212.769	53.67
213.237	-98.33
213.705	6.67
214.173	-101.33
214.64	-45.33
215.108	-34.33
215.576	37.67
216.043	-75.33
216.511	-2.33
216.979	-52.33
217.446	-98.33
217.914	-43.33
218.382	-32.33
218.849	-67.33
219.317	-104.33
219.784	-103.33
220.252	29.67
220.719	-26.33
221.187	-13.33
221.654	-102.33
222.121	-12.33
222.589	-24.33
223.056	-10.33
223.524	-23.33
223.991	-83.33
224.458	-58.33
224.926	-35.33
225.393	-36.33
225.86	-85.33
226.327	-87.33
226.795	-97.33
227.262	-38.33
227.729	-47.33
228.196	-53.33
228.663	-53.33
229.13	48.67
229.598	-55.33
230.065	-41.33
230.532	-71.33
230.999	-20.33
231.466	-92.33
231.933	10.67
232.4	-62.33
232.867	-131.33
233.334	-103.33
233.801	-86.33
234.268	-83.33
234.735	-46.33
235.201	-88.33
235.668	-41.33
236.135	-26.33
236.602	-31.33
237.069	-71.33
237.536	0.67
238.002	-6.33
238.469	-11.33
238.936	-51.33
239.403	-36.33
239.869	-78.33
240.336	-59.33
240.803	-27.33
241.269	-110.33
241.736	-84.33
242.202	-100.33
242.669	-90.33
243.136	-7.33
243.602	-47.33
244.069	-77.33
244.535	-116.33
245.002	-50.33
245.468	-19.33
245.934	8.67
246.401	-66.33
246.867	-113.33
247.334	-9.33
247.8	-109.33
248.266	-71.33
248.733	-69.33
249.199	-49.33
249.665	-40.33
250.132	-21.33
250.598	-25.33
251.064	5.67
251.53	-35.33
251.996	-91.33
252.463	-62.33
252.929	-99.33
253.395	132.67
253.861	-106.33
254.327	-116.33
254.793	-53.33
255.259	-7.33
255.725	-131.33
256.191	-130.33
256.657	-36.33
257.123	-49.33
257.589	-45.33
258.055	-82.33
258.521	-61.33
258.987	-95.33
259.453	-11.33
259.919	-79.33
260.384	-80.33
260.85	-77.33
261.316	-9.33
261.782	-81.33
262.248	-49.33
262.713	-6.33
263.179	-100.33
263.645	12.67
264.11	-58.33
264.576	-57.33
265.042	-30.33
265.507	94.67
265.973	-51.33
266.439	-55.33
266.904	7.67
267.37	-93.33
267.835	-78.33
268.301	-103.33
268.766	-125.33
269.232	-86.33
269.697	-62.33
270.162	-29.33
270.628	-82.33
271.093	-23.33
271.559	-73.33
272.024	-78.33
272.489	-53.33
272.955	-17.33
273.42	6.67
273.885	-65.33
274.35	-68.33
274.816	-99.33
275.281	-10.33
275.746	-85.33
276.211	-62.33
276.676	-94.33
277.141	-80.33
277.607	-41.33
278.072	-76.33
278.537	-49.33
279.002	-86.33
279.467	-115.33
279.932	-126.33
280.397	-87.33
280.862	4.67
281.327	-89.33
281.792	-62.33
282.257	-63.33
282.721	-83.33
283.186	-145.33
283.651	-98.33
284.116	-51.33
284.581	-128.33
285.046	-103.33
285.51	-81.33
285.975	-119.33
286.44	-113.33
286.905	-64.33
287.369	-48.33
287.834	-57.33
288.299	-24.33
288.763	-104.33
289.228	-51.33
289.692	8.67
290.157	-60.33
290.621	-50.33
291.086	-45.33
291.55	-82.33
292.015	-108.33
292.479	-69.33
292.944	-92.33
293.408	-122.33
293.873	-45.33
294.337	-61.33
294.801	-140.33
295.266	-74.33
295.73	-6.33
296.194	11.67
296.659	-102.33
297.123	-20.33
297.587	-41.33
298.052	-77.33
298.516	-88.33
298.98	-109.33
299.444	-27.33
299.908	-72.33
300.372	-79.33
300.836	-105.33
301.301	18.67
301.765	-57.33
302.229	-91.33
302.693	-108.33
303.157	-58.33
303.621	-89.33
304.085	0.67
304.549	38.67
305.013	-59.33
305.476	-104.33
305.94	-75.33
306.404	-124.33
306.868	-56.33
307.332	47.67
307.796	-108.33
308.259	-152.33
308.723	-59.33
309.187	-74.33
309.651	-63.33
310.114	-62.33
310.578	14.67
311.042	-90.33
311.505	-86.33
311.969	-0.33
312.433	-84.33
312.896	-109.33
313.36	-109.33
313.823	-92.33
314.287	-93.33
314.75	-110.33
315.214	-56.33
315.677	-73.33
316.141	-98.33
316.604	14.67
317.068	-76.33
317.531	-15.33
317.994	-99.33
318.458	-2.33
318.921	-85.33
319.384	-32.33
319.848	-27.33
320.311	-74.33
320.774	-100.33
321.237	-88.33
321.7	-117.33
322.164	-83.33
322.627	-75.33
323.09	-57.33
323.553	-22.33
324.016	-51.33
324.479	-45.33
324.942	-44.33
325.405	-86.33
325.868	-70.33
326.331	-66.33
326.794	-116.33
327.257	-65.33
327.72	-83.33
328.183	-58.33
328.646	-113.33
329.109	-103.33
329.572	-54.33
330.034	-72.33
330.497	-115.33
330.96	-48.33
331.423	-60.33
331.886	-55.33
332.348	-37.33
332.811	-86.33
333.274	-50.33
333.736	-21.33
334.199	-80.33
334.662	-132.33
335.124	-85.33
335.587	-83.33
336.049	1.67
336.512	-121.33
336.974	-102.33
337.437	-96.33
337.899	-7.33
338.362	-102.33
338.824	-55.33
339.287	-116.33
339.749	-13.33
340.212	-49.33
340.674	-52.33
341.136	3.67
341.599	-17.33
342.061	-93.33
342.523	-0.33
342.985	-57.33
343.448	-37.33
343.91	-72.33
344.372	-77.33
344.834	-97.33
345.296	-21.33
345.758	-44.33
346.221	-51.33
346.683	-25.33
347.145	-0.33
347.607	-115.33
348.069	-59.33
348.531	-93.33
348.993	-103.33
349.455	-38.33
349.917	-85.33
350.379	-58.33
350.84	-117.33
351.302	15.67
351.764	-120.33
352.226	-65.33
352.688	-87.33
353.15	-37.33
353.611	-96.33
354.073	-51.33
354.535	-78.33
354.997	-52.33
355.458	-10.33
355.92	-66.33
356.382	-41.33
356.843	-58.33
357.305	-117.33
357.767	-123.33
358.228	-99.33
358.69	-63.33
359.151	-132.33
359.613	-84.33
360.074	-138.33
360.536	13.67
360.997	-103.33
361.458	-52.33
361.92	-79.33
362.381	-23.33
362.843	-98.33
363.304	-83.33
363.765	-67.33
364.227	-100.33
364.688	-30.33
365.149	-103.33
365.61	-68.33
366.072	-41.33
366.533	-72.33
366.994	-40.33
367.455	-46.33
367.916	-40.33
368.377	-19.33
368.838	-112.33
369.299	-18.33
369.761	-42.33
370.222	-89.33
370.683	-47.33
371.144	-68.33
371.604	-43.33
372.065	-29.33
372.526	-86.33
372.987	-82.33
373.448	-124.33
373.909	-54.33
374.37	-62.33
374.831	-69.33
375.291	-69.33
375.752	-61.33
376.213	98.67
376.674	-15.33
377.134	-25.33
377.595	-1.33
378.056	-130.33
378.516	-103.33
378.977	-63.33
379.438	-154.33
379.898	-48.33
380.359	-82.33
380.819	-88.33
381.28	-69.33
381.74	-90.33
382.201	-13.33
382.661	-28.33
383.122	-95.33
383.582	-66.33
384.042	-44.33
384.503	-91.33
384.963	-55.33
385.424	-47.33
385.884	-69.33
386.344	-148.33
386.804	-56.33
387.265	-104.33
387.725	-34.33
388.185	-84.33
388.645	-19.33
389.105	-7.33
389.566	-96.33
390.026	-51.33
390.486	-89.33
390.946	-41.33
391.406	-49.33
391.866	-82.33
392.326	-56.33
392.786	-117.33
393.246	-57.33
393.706	-89.33
394.166	-0.33
394.626	-92.33
395.085	6.67
395.545	-118.33
396.005	-81.33
396.465	-59.33
396.925	-78.33
397.385	-104.33
397.844	-128.33
398.304	-39.33
398.764	-87.33
399.223	21.67
399.683	45.67
400.143	-108.33
400.602	-76.33
401.062	-42.33
401.522	-32.33
401.981	-97.33
402.441	-108.33
402.9	-54.33
403.36	-62.33
403.819	-27.33
404.279	-46.33
404.738	-23.33
405.197	-25.33
405.657	-91.33
406.116	-36.33
406.576	-86.33
407.035	-58.33
407.494	-76.33
407.953	-98.33
408.413	-86.33
408.872	-68.33
409.331	-77.33
409.79	-88.33
410.25	-100.33
410.709	-37.33
411.168	-61.33
411.627	-36.33
412.086	-33.33
412.545	-63.33
413.004	-23.33
413.463	-89.33
413.922	-112.33
414.381	-111.33
414.84	-46.33
415.299	-122.33
415.758	-60.33
416.217	-131.33
416.676	-90.33
417.135	-62.33
417.593	-97.33
418.052	-88.33
418.511	-56.33
418.97	-35.33
419.429	16.67
419.887	-2.33
420.346	-105.33
420.805	-49.33
421.263	-83.33
421.722	-75.33
422.181	-82.33
422.639	-77.33
423.098	-21.33
423.556	-69.33
424.015	-90.33
424.473	-95.33
424.932	-52.33
425.39	-76.33
425.849	-100.33
426.307	-58.33
426.765	-38.33
427.224	-41.33
427.682	-88.33
428.14	-23.33
428.599	-96.33
429.057	-29.33
429.515	-94.33
429.974	-96.33
430.432	-44.33
430.89	137.67
431.348	-107.33
431.806	-74.33
432.264	-98.33
432.723	-71.33
433.181	-82.33
433.639	-4.33
434.097	-159.33
434.555	-29.33
435.013	-90.33
435.471	-82.33
435.929	-126.33
436.387	-26.33
436.845	-89.33
437.303	-39.33
437.76	-108.33
438.218	-59.33
438.676	-13.33
439.134	-146.33
439.592	-56.33
440.049	-105.33
440.507	-58.33
440.965	-62.33
441.423	-61.33
441.88	-27.33
442.338	-3.33
442.796	-36.33
443.253	-29.33
443.711	-112.33
444.168	-79.33
444.626	-95.33
445.083	-28.33
445.541	-32.33
445.998	-46.33
446.456	-96.33
446.913	51.67
447.371	-62.33
447.828	-47.33
448.285	-100.33
448.743	-125.33
449.2	-57.33
449.657	-72.33
450.115	-119.33
450.572	-75.33
451.029	-13.33
451.486	-75.33
451.944	-53.33
452.401	-138.33
452.858	-103.33
453.315	-84.33
453.772	-157.33
454.229	-46.33
454.686	-75.33
455.143	-139.33
455.6	1.67
456.057	-33.33
456.514	-35.33
456.971	-35.33
457.428	-51.33
457.885	-86.33
458.342	-101.33
458.799	-117.33
459.256	-75.33
459.712	-85.33
460.169	-81.33
460.626	-103.33
461.083	-100.33
461.539	-55.33
461.996	21.67
462.453	-34.33
462.909	-144.33
463.366	-28.33
463.823	-99.33
464.279	-36.33
464.736	63.67
465.192	-77.33
465.649	-85.33
466.105	-74.33
466.562	-74.33
467.018	-85.33
467.475	-47.33
467.931	-54.33
468.388	-38.33
468.844	-42.33
469.3	-33.33
469.757	-19.33
470.213	-79.33
470.669	-31.33
471.126	-100.33
471.582	-92.33
472.038	-46.33
472.494	-57.33
472.95	-75.33
473.406	-58.33
473.863	-69.33
474.319	-90.33
474.775	42.67
475.231	-101.33
475.687	-35.33
476.143	-133.33
476.599	0.67
477.055	-95.33
477.511	-19.33
477.967	-11.33
478.423	-100.33
478.879	-65.33
479.334	-82.33
479.79	-86.33
480.246	-110.33
480.702	-101.33
481.158	-83.33
481.613	-187.33
482.069	-37.33
482.525	-24.33
482.98	-23.33
483.436	-104.33
483.892	4.67
484.347	-67.33
484.803	-27.33
485.258	20.67
485.714	-53.33
486.169	-63.33
486.625	-106.33
487.08	-43.33
487.536	-56.33
487.991	-86.33
488.447	-71.33
488.902	-62.33
489.357	-65.33
489.813	-105.33
490.268	-31.33
490.723	-56.33
491.179	-69.33
491.634	-6.33
492.089	-31.33
492.544	-54.33
493	-63.33
493.455	-70.33
493.91	-54.33
494.365	-8.33
494.82	-75.33
495.275	-107.33
495.73	-23.33
496.185	-14.33
496.64	-30.33
497.095	-44.33
497.55	-32.33
498.005	-61.33
498.46	-34.33
498.915	-20.33
499.37	-19.33
499.825	-49.33
500.279	-120.33
500.734	-93.33
501.189	-116.33
501.644	-60.33
502.098	-127.33
502.553	-65.33
503.008	-129.33
503.462	-62.33
503.917	-54.33
504.372	-50.33
504.826	-49.33
505.281	-87.33
505.735	-40.33
506.19	-50.33
506.644	-3.33
507.099	-70.33
507.553	-73.33
508.008	11.67
508.462	-37.33
508.917	-66.33
509.371	-76.33
509.825	-36.33
510.28	42.67
510.734	39.67
511.188	-20.33
511.642	-56.33
512.097	5.67
512.551	-55.33
513.005	-66.33
513.459	-79.33
513.913	-41.33
514.367	-110.33
514.822	-33.33
515.276	-15.33
515.73	-55.33
516.184	-95.33
516.638	-38.33
517.092	-111.33
517.546	-72.33
517.999	-86.33
518.453	-154.33
518.907	-84.33
519.361	-75.33
519.815	2.67
520.269	-20.33
520.723	-50.33
521.176	-82.33
521.63	-102.33
522.084	-104.33
522.538	-107.33
522.991	-86.33
523.445	-150.33
523.898	-49.33
524.352	-66.33
524.806	-86.33
525.259	-84.33
525.713	-113.33
526.166	-67.33
526.62	-13.33
527.073	-55.33
527.527	-75.33
527.98	-47.33
528.433	-36.33
528.887	-99.33
529.34	-69.33
529.794	-90.33
530.247	-119.33
530.7	-82.33
531.153	-48.33
531.607	-103.33
532.06	-43.33
532.513	-65.33
532.966	-43.33
533.419	-107.33
533.872	-46.33
534.326	-125.33
534.779	10.67
535.232	-73.33
535.685	-31.33
536.138	-78.33
536.591	-24.33
537.044	-68.33
537.497	-71.33
537.95	-44.33
538.402	-120.33
538.855	-94.33
539.308	-43.33
539.761	-77.33
540.214	-98.33
540.667	-30.33
541.119	-58.33
541.572	-112.33
542.025	-20.33
542.477	-74.33
542.93	-47.33
543.383	-91.33
543.835	-57.33
544.288	-59.33
544.74	-119.33
545.193	-88.33
545.645	-99.33
546.098	-85.33
546.55	-113.33
547.003	-15.33
547.455	-81.33
547.908	-78.33
548.36	14.67
548.812	-50.33
549.265	-88.33
549.717	-102.33
550.169	-116.33
550.622	-56.33
551.074	-70.33
551.526	-80.33
551.978	-46.33
552.43	-116.33
552.883	-132.33
553.335	-74.33
553.787	-141.33
554.239	-6.33
554.691	-95.33
555.143	-113.33
555.595	-81.33
556.047	-75.33
556.499	-18.33
556.951	-38.33
557.403	-66.33
557.855	-46.33
558.307	-1.33
558.758	-141.33
559.21	-61.33
559.662	-56.33
560.114	-80.33
560.565	-28.33
561.017	-58.33
561.469	-1.33
561.921	-8.33
562.372	-33.33
562.824	-45.33
563.275	-61.33
563.727	-15.33
564.179	-46.33
564.63	-14.33
565.082	-76.33
565.533	-63.33
565.985	-43.33
566.436	-29.33
566.887	-58.33
567.339	-16.33
567.79	-52.33
568.242	0.67
568.693	-70.33
569.144	-73.33
569.595	-132.33
570.047	9.67
570.498	-89.33
570.949	-55.33
571.4	-117.33
571.851	-49.33
572.303	88.67
572.754	-98.33
573.205	-79.33
573.656	-11.33
574.107	-63.33
574.558	-132.33
575.009	-86.33
575.46	-74.33
575.911	-47.33
576.362	-20.33
576.813	-30.33
577.263	-45.33
577.714	-67.33
578.165	-98.33
578.616	-67.33
579.067	-55.33
579.517	-92.33
579.968	-1.33
580.419	-62.33
580.87	-88.33
581.32	-93.33
581.771	-74.33
582.222	-59.33
582.672	1.67
583.123	-19.33
583.573	-8.33
584.024	44.67
584.474	-21.33
584.925	-45.33
585.375	-89.33
585.826	-54.33
586.276	-86.33
586.726	-48.33
587.177	-75.33
587.627	-73.33
588.077	-135.33
588.528	-82.33
588.978	-14.33
589.428	-79.33
589.878	-81.33
590.328	-62.33
590.779	-11.33
591.229	-97.33
591.679	-42.33
592.129	-60.33
592.579	37.67
593.029	-103.33
593.479	-75.33
593.929	0.67
594.379	-34.33
594.829	-124.33
595.279	-75.33
595.729	-3.33
596.179	-34.33
596.628	-43.33
597.078	-60.33
597.528	-76.33
597.978	-14.33
598.428	19.67
598.877	-77.33
599.327	42.67
599.777	-62.33
600.226	-68.33
600.676	-114.33
601.126	-63.33
601.575	-128.33
602.025	-91.33
602.474	-27.33
602.924	-38.33
603.373	-69.33
603.823	-71.33
604.272	-75.33
604.722	80.67
605.171	-44.33
605.62	-137.33
606.07	-22.33
606.519	-35.33
606.968	-80.33
607.418	-11.33
607.867	-102.33
608.316	-102.33
608.765	-48.33
609.214	-74.33
609.664	-152.33
610.113	-84.33
610.562	-80.33
611.011	-49.33
611.46	-47.33
611.909	-40.33
612.358	-1.33
612.807	18.67
613.256	-63.33
613.705	33.67
614.154	-71.33
614.603	-152.33
615.051	-66.33
615.5	-62.33
615.949	-48.33
616.398	-95.33
616.847	-55.33
617.295	-46.33
617.744	15.67
618.193	-44.33
618.641	-14.33
619.09	-39.33
619.539	-51.33
619.987	-54.33
620.436	-81.33
620.884	-37.33
621.333	-41.33
621.781	-43.33
622.23	66.67
622.678	-73.33
623.127	-55.33
623.575	-98.33
624.024	-58.33
624.472	-83.33
624.92	-42.33
625.369	-121.33
625.817	-26.33
626.265	8.67
626.713	-66.33
627.161	-33.33
627.61	-84.33
628.058	22.67
628.506	-80.33
628.954	-129.33
629.402	-45.33
629.85	-93.33
630.298	-93.33
630.746	-146.33
631.194	-125.33
631.642	-82.33
632.09	-28.33
632.538	-31.33
632.986	-34.33
633.434	-22.33
633.882	-60.33
634.329	-6.33
634.777	-37.33
635.225	-76.33
635.673	-73.33
636.12	2.67
636.568	-34.33
637.016	-112.33
637.463	-9.33
637.911	-85.33
638.359	-36.33
638.806	-5.33
639.254	-36.33
639.701	-16.33
640.149	-50.33
640.596	-48.33
641.044	-47.33
641.491	-75.33
641.938	-39.33
642.386	18.67
642.833	-31.33
643.281	-105.33
643.728	-78.33
644.175	-75.33
644.622	-76.33
645.07	-40.33
645.517	-117.33
645.964	-61.33
646.411	-25.33
646.858	-44.33
647.305	-27.33
647.752	-92.33
648.199	-54.33
648.646	-15.33
649.093	-93.33
649.54	-69.33
649.987	-31.33
650.434	-60.33
650.881	-82.33
651.328	-76.33
651.775	-82.33
652.222	-60.33
652.669	-82.33
653.115	-83.33
653.562	-93.33
654.009	-52.33
654.456	-41.33
654.902	-54.33
655.349	-115.33
655.796	-77.33
656.242	-29.33
656.689	15.67
657.135	-65.33
657.582	-118.33
658.028	-102.33
658.475	-39.33
658.921	-156.33
659.368	-49.33
659.814	-48.33
660.26	-64.33
660.707	-66.33
661.153	12.67
661.599	-33.33
662.046	-55.33
662.492	-79.33
662.938	-51.33
663.384	-3.33
663.831	-83.33
664.277	-44.33
664.723	-67.33
665.169	-45.33
665.615	-143.33
666.061	-162.33
666.507	-30.33
666.953	-57.33
667.399	-60.33
667.845	-71.33
668.291	-28.33
668.737	-69.33
669.183	-65.33
669.629	-38.33
670.075	-81.33
670.52	-109.33
670.966	-33.33
671.412	-115.33
671.858	-72.33
672.303	-89.33
672.749	-15.33
673.195	-95.33
673.64	-88.33
674.086	-119.33
674.532	-8.33
674.977	-70.33
675.423	9.67
675.868	-101.33
676.314	-27.33
676.759	-31.33
677.205	-100.33
677.65	-38.33
678.095	-87.33
678.541	-45.33
678.986	-69.33
679.431	-175.33
679.877	-71.33
680.322	-116.33
680.767	-54.33
681.212	-72.33
681.658	-85.33
682.103	-83.33
682.548	-53.33
682.993	-7.33
683.438	-80.33
683.883	-45.33
684.328	-42.33
684.773	-102.33
685.218	-9.33
685.663	-59.33
686.108	-95.33
686.553	-29.33
686.998	-99.33
687.443	-44.33
687.887	-7.33
688.332	-121.33
688.777	-82.33
689.222	-52.33
689.667	-83.33
690.111	1.67
690.556	-13.33
691.001	-29.33
691.445	113.67
691.89	-86.33
692.334	-41.33
692.779	-125.33
693.223	-67.33
693.668	-29.33
694.112	-114.33
694.557	-75.33
695.001	-44.33
695.446	-77.33
695.89	-16.33
696.334	-70.33
696.779	-17.33
697.223	-96.33
697.667	-49.33
698.112	-27.33
698.556	-56.33
699	-133.33
699.444	-108.33
699.888	-3.33
700.332	-1.33
700.777	-111.33
701.221	-81.33
701.665	104.67
702.109	-106.33
702.553	13.67
702.997	-12.33
703.441	-67.33
703.885	-51.33
704.328	-59.33
704.772	-28.33
705.216	-68.33
705.66	-90.33
706.104	-44.33
706.548	-61.33
706.991	-135.33
707.435	-49.33
707.879	-69.33
708.322	-65.33
708.766	-63.33
709.21	-99.33
709.653	-76.33
710.097	-60.33
710.54	-10.33
710.984	-79.33
711.427	24.67
711.871	-88.33
712.314	288.67
712.758	-34.33
713.201	-44.33
713.644	-78.33
714.088	-33.33
714.531	-65.33
714.974	-47.33
715.418	-45.33
715.861	-102.33
716.304	-44.33
716.747	-87.33
717.19	-54.33
717.634	-37.33
718.077	-43.33
718.52	-90.33
718.963	-17.33
719.406	-112.33
719.849	-89.33
720.292	-48.33
720.735	-163.33
721.178	-63.33
721.621	-71.33
722.063	-71.33
722.506	8.67
722.949	-38.33
723.392	22.67
723.835	-105.33
724.277	-11.33
724.72	-66.33
725.163	-15.33
725.605	-64.33
726.048	-69.33
726.491	-31.33
726.933	-62.33
727.376	-35.33
727.818	-84.33
728.261	-38.33
728.703	-87.33
729.146	-35.33
729.588	-97.33
730.031	-16.33
730.473	20.67
730.916	-12.33
731.358	-29.33
731.8	69.67
732.242	-18.33
732.685	-54.33
733.127	-7.33
733.569	-13.33
734.011	-42.33
734.453	-38.33
734.896	-22.33
735.338	-28.33
735.78	-29.33
736.222	-55.33
736.664	-42.33
737.106	12.67
737.548	17.67
737.99	70.67
738.432	67.67
738.874	48.67
739.315	48.67
739.757	19.67
740.199	-45.33
740.641	-34.33
741.083	-0.33
741.524	12.67
741.966	7.67
742.408	80.67
742.849	24.67
743.291	70.67
743.733	138.67
744.174	29.67
744.616	74.67
745.057	119.67
745.499	38.67
745.94	110.67
746.382	129.67
746.823	162.67
747.265	87.67
747.706	101.67
748.147	200.67
748.589	119.67
749.03	167.67
749.471	125.67
749.913	168.67
750.354	138.67
750.795	184.67
751.236	215.67
751.677	177.67
752.118	238.67
752.559	348.67
753.001	293.67
753.442	247.67
753.883	309.67
754.324	267.67
754.765	312.67
755.205	300.67
755.646	339.67
756.087	309.67
756.528	406.67
756.969	503.67
757.41	430.67
757.851	576.67
758.291	510.67
758.732	529.67
759.173	647.67
759.613	615.67
760.054	793.67
760.495	745.67
760.935	775.67
761.376	805.67
761.816	838.67
762.257	876.67
762.697	975.67
763.138	1045.67
763.578	1077.67
764.019	1296.67
764.459	1201.67
764.899	1198.67
765.34	1355.67
765.78	1463.67
766.22	1476.67
766.661	1544.67
767.101	1612.67
767.541	1669.67
767.981	1731.67
768.421	1838.67
768.861	1905.67
769.302	2014.67
769.742	2123.67
770.182	2158.67
770.622	2361.67
771.062	2319.67
771.502	2549.67
771.942	2494.67
772.382	2706.67
772.821	2877.67
773.261	2964.67
773.701	3158.67
774.141	3214.67
774.581	3455.67
775.02	3683.67
775.46	3702.67
775.9	3989.67
776.34	3958.67
776.779	4269.67
777.219	4248.67
777.658	4351.67
778.098	4693.67
778.538	4745.67
778.977	5158.67
779.417	5246.67
779.856	5383.67
780.295	5697.67
780.735	5572.67
781.174	6079.67
781.614	6229.67
782.053	6252.67
782.492	6478.67
782.931	6417.67
783.371	6908.67
783.81	7071.67
784.249	7052.67
784.688	7724.67
785.127	7193.67
785.567	7629.67
786.006	7960.67
786.445	7767.67
786.884	8380.67
787.323	7968.67
787.762	8271.67
788.201	8495.67
788.64	8024.67
789.079	9012.67
789.517	8618.67
789.956	8572.67
790.395	9225.67
790.834	8645.67
791.273	9121.67
791.711	9048.67
792.15	8967.67
792.589	9461.67
793.028	9066.67
793.466	9148.67
793.905	9483.67
794.343	9117.67
794.782	9490.67
795.22	9270.67
795.659	9368.67
796.097	9761.67
796.536	9191.67
796.974	9573.67
797.413	9132.67
797.851	9034.67
798.289	9427.67
798.728	8967.67
799.166	9088.67
799.604	9382.67
800.043	8667.67
800.481	9189.67
800.919	8657.67
801.357	8465.67
801.795	9055.67
802.233	8513.67
802.672	8543.67
803.11	8245.67
803.548	7711.67
803.986	7967.67
804.424	7734.67
804.862	7562.67
805.299	7938.67
805.737	7167.67
806.175	6993.67
806.613	6827.67
807.051	6713.67
807.489	6919.67
807.926	6579.67
808.364	6329.67
808.802	6482.67
809.24	6034.67
809.677	5867.67
810.115	5831.67
810.552	5690.67
810.99	5579.67
811.427	5552.67
811.865	5138.67
812.303	5281.67
812.74	4858.67
813.177	4418.67
813.615	4439.67
814.052	3925.67
814.49	3534.67
814.927	3459.67
815.364	2855.67
815.801	2558.67
816.239	2236.67
816.676	1762.67
817.113	1389.67
817.55	1296.67
817.987	1154.67
818.425	1108.67
818.862	1266.67
819.299	1479.67
819.736	1534.67
820.173	1880.67
820.61	2239.67
821.047	2196.67
821.484	2380.67
821.92	2350.67
822.357	2074.67
822.794	1747.67
823.231	1355.67
823.668	1391.67
824.105	937.67
824.541	873.67
824.978	827.67
825.415	916.67
825.851	1150.67
826.288	1217.67
826.725	1466.67
827.161	1351.67
827.598	1237.67
828.034	980.67
828.471	829.67
828.907	715.67
829.344	738.67
829.78	790.67
830.216	855.67
830.653	948.67
831.089	885.67
831.525	733.67
831.962	611.67
832.398	532.67
832.834	546.67
833.27	644.67
833.707	617.67
834.143	673.67
834.579	707.67
835.015	434.67
835.451	411.67
835.887	522.67
836.323	523.67
836.759	433.67
837.195	428.67
837.631	353.67
838.067	355.67
838.503	436.67
838.938	393.67
839.374	273.67
839.81	344.67
840.246	162.67
840.682	339.67
841.117	288.67
841.553	260.67
841.989	247.67
842.424	249.67
842.86	211.67
843.295	230.67
843.731	218.67
844.166	210.67
844.602	166.67
845.037	209.67
845.473	138.67
845.908	176.67
846.344	147.67
846.779	81.67
847.214	116.67
847.649	214.67
848.085	180.67
848.52	160.67
848.955	34.67
849.39	122.67
849.826	84.67
850.261	74.67
850.696	68.67
851.131	126.67
851.566	-26.33
852.001	40.67
852.436	59.67
852.871	78.67
853.306	-2.33
853.741	26.67
854.176	14.67
854.61	-1.33
855.045	60.67
855.48	61.67
855.915	0.67
856.35	6.67
856.784	3.67
857.219	20.67
857.654	0.67
858.088	-12.33
858.523	-62.33
858.958	-50.33
859.392	-71.33
859.827	-57.33
860.261	-57.33
860.696	-42.33
861.13	30.67
861.564	-20.33
861.999	-20.33
862.433	-32.33
862.868	-36.33
863.302	50.67
863.736	-48.33
864.17	-75.33
864.605	-44.33
865.039	-90.33
865.473	-13.33
865.907	-63.33
866.341	-103.33
866.775	-13.33
867.209	-48.33
867.643	-102.33
868.077	-5.33
868.511	13.67
868.945	-12.33
869.379	6.67
869.813	-4.33
870.247	-8.33
870.681	3.67
871.115	-37.33
871.548	-64.33
871.982	-69.33
872.416	-105.33
872.85	-67.33
873.283	-51.33
873.717	127.67
874.151	-21.33
874.584	-99.33
875.018	-82.33
875.451	45.67
875.885	11.67
876.318	-10.33
876.752	-16.33
877.185	10.67
877.618	-30.33
878.052	-66.33
878.485	-78.33
878.918	-112.33
879.352	-82.33
879.785	-94.33
880.218	-26.33
880.651	-21.33
881.085	105.67
881.518	-73.33
881.951	-9.33
882.384	-67.33
882.817	-27.33
883.25	-71.33
883.683	-123.33
884.116	7.67
884.549	-110.33
884.982	-28.33
885.415	-88.33
885.848	-90.33
886.28	-31.33
886.713	-76.33
887.146	-62.33
887.579	-46.33
888.012	-36.33
888.444	35.67
888.877	-37.33
889.31	-52.33
889.742	-22.33
890.175	-51.33
890.607	13.67
891.04	-40.33
891.472	-32.33
891.905	-35.33
892.337	-137.33
892.77	-30.33
893.202	-91.33
893.634	-71.33
894.067	-54.33
894.499	-104.33
894.931	-62.33
895.364	-81.33
895.796	-53.33
896.228	-17.33
896.66	-19.33
897.092	50.67
897.524	-48.33
897.956	-20.33
898.389	-48.33
898.821	-76.33
899.253	49.67
899.685	-65.33
900.116	-58.33
900.548	-106.33
900.98	-107.33
901.412	-53.33
901.844	-121.33
902.276	-28.33
902.708	-19.33
903.139	-17.33
903.571	-11.33
904.003	-46.33
904.434	123.67
904.866	11.67
905.298	-38.33
905.729	-78.33
906.161	-49.33
906.592	-66.33
907.024	-73.33
907.455	-77.33
907.887	157.67
908.318	-39.33
908.749	30.67
909.181	-57.33
909.612	-4.33
910.043	-69.33
910.475	-56.33
910.906	-59.33
911.337	-15.33
911.768	9.67
912.199	-94.33
912.63	32.67
913.062	-60.33
913.493	-80.33
913.924	-42.33
914.355	24.67
914.786	-120.33
915.217	-43.33
915.648	-37.33
916.078	-28.33
916.509	-27.33
916.94	-101.33
917.371	-34.33
917.802	-52.33
918.233	4.67
918.663	-66.33
919.094	-69.33
919.525	-18.33
919.955	-94.33
920.386	-57.33
920.816	-31.33
921.247	-87.33
921.678	-38.33
922.108	-58.33
922.539	-27.33
922.969	-38.33
923.399	-44.33
923.83	-42.33
924.26	105.67
924.69	5.67
925.121	-17.33
925.551	-76.33
925.981	-96.33
926.412	-25.33
926.842	-20.33
927.272	-75.33
927.702	-22.33
928.132	-58.33
928.562	-22.33
928.992	-28.33
929.422	-40.33
929.852	27.67
930.282	-32.33
930.712	26.67
931.142	-96.33
931.572	-35.33
932.002	-17.33
932.432	-69.33
932.861	-5.33
933.291	-42.33
933.721	-38.33
934.151	-145.33
934.58	-75.33
935.01	-35.33
935.439	-116.33
935.869	-16.33
936.299	-61.33
936.728	-97.33
937.158	-44.33
937.587	-8.33
938.017	-85.33
938.446	-90.33
938.875	-20.33
939.305	-74.33
939.734	-77.33
940.163	-82.33
940.593	-38.33
941.022	-75.33
941.451	-77.33
941.88	-85.33
942.309	-75.33
942.739	-41.33
943.168	-42.33
943.597	-9.33
944.026	-72.33
944.455	-74.33
944.884	18.67
945.313	-51.33
945.742	-51.33
946.171	-50.33
946.6	-45.33
947.028	-60.33
947.457	-90.33
947.886	-96.33
948.315	35.67
948.743	-24.33
949.172	-3.33
949.601	-60.33
950.029	-62.33
950.458	-69.33
950.887	0.67
951.315	-41.33
951.744	1.67
952.172	-60.33
952.601	-26.33
953.029	-58.33
953.458	-102.33
953.886	-75.33
954.314	-75.33
954.743	-30.33
955.171	-22.33
955.599	-85.33
956.027	-26.33
956.456	-56.33
956.884	-96.33
957.312	14.67
957.74	-78.33
958.168	71.67
958.596	-97.33
959.024	-66.33
959.452	-30.33
959.88	-88.33
960.308	-36.33
960.736	-145.33
961.164	5.67
961.592	-161.33
962.02	25.67
962.448	-127.33
962.875	-15.33
963.303	-22.33
963.731	-53.33
964.159	-65.33
964.586	-60.33
965.014	-0.33
965.441	-52.33
965.869	-92.33
966.297	-18.33
966.724	-30.33
967.152	-66.33
967.579	-84.33
968.006	-78.33
968.434	-30.33
968.861	-72.33
969.289	-69.33
969.716	-72.33
970.143	-92.33
970.57	-36.33
970.998	-63.33
971.425	-23.33
971.852	-22.33
972.279	-33.33
972.706	-50.33
973.133	43.67
973.56	-70.33
973.987	-50.33
974.414	-86.33
974.841	-7.33
975.268	-13.33
975.695	-30.33
976.122	-80.33
976.549	-58.33
976.976	-61.33
977.403	121.67
977.829	24.67
978.256	-78.33
978.683	-106.33
979.109	-25.33
979.536	-46.33
979.963	-99.33
980.389	-91.33
980.816	0.67
981.242	-62.33
981.669	-79.33
982.095	-69.33
982.522	-100.33
982.948	-31.33
983.375	-108.33
983.801	25.67
984.227	-48.33
984.653	12.67
985.08	-73.33
985.506	43.67
985.932	-68.33
986.358	-124.33
986.785	15.67
987.211	-10.33
987.637	-121.33
988.063	17.67
988.489	-72.33
988.915	-109.33
989.341	-102.33
989.767	42.67
990.193	-74.33
990.619	-64.33
991.044	-48.33
991.47	28.67
991.896	-45.33
992.322	-8.33
992.748	-26.33
993.173	-25.33
993.599	-38.33
994.025	-64.33
994.45	-46.33
994.876	-91.33
995.301	-160.33
995.727	-29.33
996.152	-94.33
996.578	2.67
997.003	36.67
997.429	-32.33
997.854	-64.33
998.279	-78.33
998.705	-76.33
999.13	-40.33
999.555	34.67
999.981	-52.33
1000.406	-7.33
1000.831	-46.33
1001.256	-63.33
1001.681	17.67
1002.106	-118.33
1002.531	-84.33
1002.956	-67.33
1003.381	-49.33
1003.806	-96.33
1004.231	2.67
1004.656	-123.33
1005.081	-82.33
1005.506	-26.33
1005.931	29.67
1006.356	-14.33
1006.78	-46.33
1007.205	-71.33
1007.63	5.67
1008.054	-98.33
1008.479	-95.33
1008.904	-13.33
1009.328	-86.33
1009.753	-51.33
1010.177	-42.33
1010.602	7.67
1011.026	-89.33
1011.451	-97.33
1011.875	-29.33
1012.3	-51.33
1012.724	-49.33
1013.148	-9.33
1013.572	-53.33
1013.997	-68.33
1014.421	-90.33
1014.845	-50.33
1015.269	-23.33
1015.694	-70.33
1016.118	-135.33
1016.542	-17.33
1016.966	-52.33
1017.39	-25.33
1017.814	-112.33
1018.238	172.67
1018.662	-88.33
1019.086	-53.33
1019.509	-8.33
1019.933	-67.33
1020.357	-41.33
1020.781	-75.33
1021.205	-119.33
1021.628	-54.33
1022.052	-28.33
1022.476	-44.33
1022.899	-69.33
1023.323	-37.33
1023.747	-54.33
1024.17	-56.33
1024.594	-41.33
1025.017	-107.33
1025.441	-54.33
1025.864	-36.33
1026.287	-80.33
1026.711	-117.33
1027.134	-48.33
1027.557	-118.33
1027.981	-12.33
1028.404	-52.33
1028.827	-89.33
1029.25	-82.33
1029.673	-40.33
1030.097	-68.33
1030.52	-54.33
1030.943	-40.33
1031.366	-46.33
1031.789	60.67
1032.212	-53.33
1032.635	-72.33
1033.058	-78.33
1033.481	-23.33
1033.903	-34.33
1034.326	-57.33
1034.749	-94.33
1035.172	-104.33
1035.595	-68.33
1036.017	-66.33
1036.44	-87.33
1036.863	-49.33
1037.285	-104.33
1037.708	-91.33
1038.13	0.67
1038.553	-55.33
1038.975	-74.33
1039.398	-69.33
1039.82	-83.33
1040.243	-36.33
1040.665	-94.33
1041.087	3.67
1041.51	-126.33
1041.932	-71.33
1042.354	-88.33
1042.777	-38.33
1043.199	-76.33
1043.621	-12.33
1044.043	-20.33
1044.465	-44.33
1044.887	-18.33
1045.309	36.67
1045.731	-14.33
1046.153	-102.33
1046.575	-26.33
1046.997	-19.33
1047.419	-30.33
1047.841	-45.33
1048.263	-83.33
1048.685	-49.33
1049.106	-89.33
1049.528	-29.33
1049.95	-98.33
1050.372	-44.33
1050.793	-58.33
1051.215	173.67
1051.636	-20.33
1052.058	-71.33
1052.48	-60.33
1052.901	-44.33
1053.323	-146.33
1053.744	-80.33
1054.165	-157.33
1054.587	-99.33
1055.008	-79.33
1055.429	-44.33
1055.851	-75.33
1056.272	-53.33
1056.693	-94.33
1057.114	-89.33
1057.536	-37.33
1057.957	29.67
1058.378	-72.33
1058.799	13.67
1059.22	-64.33
1059.641	2.67
1060.062	-28.33
1060.483	-33.33
1060.904	-168.33
1061.325	-29.33
1061.746	-72.33
1062.166	-117.33
1062.587	-39.33
1063.008	95.67
1063.429	-44.33
1063.85	4.67
1064.27	-37.33
1064.691	175.67
1065.112	-80.33
1065.532	3.67
1065.953	-83.33
1066.373	-30.33
1066.794	9.67
1067.214	-6.33
1067.635	-9.33
1068.055	-51.33
1068.475	-13.33
1068.896	-76.33
1069.316	-90.33
1069.736	-51.33
1070.157	-96.33
1070.577	-51.33
1070.997	-44.33
1071.417	-38.33
1071.837	21.67
1072.258	-57.33
1072.678	-32.33
1073.098	-65.33
1073.518	-120.33
1073.938	-57.33
1074.358	-79.33
1074.778	-79.33
1075.197	-66.33
1075.617	-30.33
1076.037	-41.33
1076.457	24.67
1076.877	-44.33
1077.296	-10.33
1077.716	-80.33
1078.136	-7.33
1078.556	-75.33
1078.975	-1.33
1079.395	-126.33
1079.814	-48.33
1080.234	-95.33
1080.653	-90.33
1081.073	-27.33
1081.492	-126.33
1081.912	23.67
1082.331	-52.33
1082.75	-11.33
1083.17	-73.33
1083.589	-67.33
1084.008	-89.33
1084.427	20.67
1084.847	-81.33
1085.266	-32.33
1085.685	-109.33
1086.104	-121.33
1086.523	-80.33
1086.942	-50.33
1087.361	-87.33
1087.78	-145.33
1088.199	-52.33
1088.618	27.67
1089.037	-85.33
1089.456	-120.33
1089.875	2.67
1090.293	-54.33
1090.712	-22.33
1091.131	-20.33
1091.55	-14.33
1091.968	-61.33
1092.387	21.67
1092.805	-91.33
1093.224	-85.33
1093.643	-106.33
1094.061	-117.33
1094.48	-121.33
1094.898	-66.33
1095.316	-151.33
1095.735	-82.33
1096.153	-45.33
1096.572	-75.33
1096.99	-108.33
1097.408	11.67
1097.826	-48.33
1098.245	-33.33
1098.663	-75.33
1099.081	-9.33
1099.499	-76.33
1099.917	-67.33
1100.335	-29.33
1100.753	-150.33
1101.171	-151.33
1101.589	-69.33
1102.007	-108.33
1102.425	-38.33
1102.843	-13.33
1103.261	-117.33
1103.678	-39.33
1104.096	-34.33
1104.514	-63.33
1104.932	20.67
1105.349	3.67
1105.767	-41.33
1106.185	-71.33
1106.602	-51.33
1107.02	-85.33
1107.437	-74.33
1107.855	-36.33
1108.272	-123.33
1108.69	-84.33
1109.107	-91.33
1109.524	-99.33
1109.942	-85.33
1110.359	-57.33
1110.776	-62.33
1111.194	-40.33
1111.611	-35.33
1112.028	-43.33
1112.445	-13.33
1112.862	34.67
1113.279	-78.33
1113.696	56.67
1114.114	-76.33
1114.531	-56.33
1114.947	-116.33
1115.364	62.67
1115.781	-95.33
1116.198	-128.33
1116.615	-41.33
1117.032	-26.33
1117.449	-10.33
1117.865	-107.33
1118.282	39.67
1118.699	-42.33
1119.115	-113.33
1119.532	-89.33
1119.949	-77.33
1120.365	-35.33
1120.782	-38.33
1121.198	-105.33
1121.615	-75.33
1122.031	-32.33
