节点inter_Subt4__1__24.txt的数据

Date: Tue Dec 26 15:45:34 CST 2023
User: L-lab
Spectrometer: HR200306
触发模式: 0
积分时间 (秒): 1.000000E-1
Scans to average: 1
启用暗噪声校正: true
启用非线性校正: false
滑动平均宽度: 0
X轴模式: Wavelengths
Number of Pixels in Spectrum: 2110
>>>>>Begin Spectral Data<<<<<
183.73	-7.58
184.199	10.42
184.668	95.42
185.137	-19.58
185.606	14.42
186.075	31.42
186.543	-15.58
187.012	-25.58
187.481	-40.58
187.95	-23.58
188.419	6.42
188.887	-25.58
189.356	-16.58
189.825	-36.58
190.294	-8.58
190.762	-0.58
191.231	-102.58
191.7	-19.58
192.168	-23.58
192.637	17.42
193.105	-35.58
193.574	-21.58
194.043	-33.58
194.511	-26.58
194.98	-83.58
195.448	-44.58
195.917	-71.58
196.385	-46.58
196.854	-23.58
197.322	-111.58
197.79	-30.58
198.259	7.42
198.727	-90.58
199.195	-46.58
199.664	41.42
200.132	-92.58
200.6	40.42
201.069	-115.58
201.537	-102.58
202.005	-50.58
202.473	-28.58
202.942	-37.58
203.41	0.42
203.878	-24.58
204.346	-53.58
204.814	-43.58
205.282	-58.58
205.75	-47.58
206.218	-40.58
206.686	-101.58
207.155	-65.58
207.623	-37.58
208.091	-61.58
208.558	-50.58
209.026	-96.58
209.494	-25.58
209.962	-48.58
210.43	-44.58
210.898	-58.58
211.366	-75.58
211.834	-59.58
212.302	-52.58
212.769	48.42
213.237	-82.58
213.705	-56.58
214.173	-35.58
214.64	-23.58
215.108	-95.58
215.576	-40.58
216.043	-74.58
216.511	-63.58
216.979	-41.58
217.446	-44.58
217.914	-11.58
218.382	5.42
218.849	-4.58
219.317	-34.58
219.784	-110.58
220.252	95.42
220.719	-5.58
221.187	-2.58
221.654	-80.58
222.121	34.42
222.589	-3.58
223.056	-59.58
223.524	-65.58
223.991	-79.58
224.458	-58.58
224.926	-44.58
225.393	-15.58
225.86	-62.58
226.327	-91.58
226.795	4.42
227.262	-80.58
227.729	-28.58
228.196	-43.58
228.663	-59.58
229.13	37.42
229.598	-22.58
230.065	-71.58
230.532	-126.58
230.999	-9.58
231.466	-105.58
231.933	30.42
232.4	-31.58
232.867	-105.58
233.334	-22.58
233.801	-70.58
234.268	-72.58
234.735	-25.58
235.201	-21.58
235.668	-43.58
236.135	-5.58
236.602	-30.58
237.069	-58.58
237.536	-26.58
238.002	-57.58
238.469	-19.58
238.936	-38.58
239.403	-48.58
239.869	-91.58
240.336	-61.58
240.803	11.42
241.269	-86.58
241.736	-30.58
242.202	-62.58
242.669	18.42
243.136	-2.58
243.602	-49.58
244.069	-79.58
244.535	-60.58
245.002	-41.58
245.468	-59.58
245.934	52.42
246.401	-107.58
246.867	-122.58
247.334	-36.58
247.8	-116.58
248.266	-48.58
248.733	-76.58
249.199	-11.58
249.665	-14.58
250.132	-48.58
250.598	-13.58
251.064	10.42
251.53	-40.58
251.996	-62.58
252.463	-105.58
252.929	-97.58
253.395	130.42
253.861	-49.58
254.327	-49.58
254.793	-57.58
255.259	-20.58
255.725	-114.58
256.191	-20.58
256.657	-29.58
257.123	-65.58
257.589	-12.58
258.055	-94.58
258.521	-33.58
258.987	-26.58
259.453	-38.58
259.919	-65.58
260.384	-84.58
260.85	7.42
261.316	-31.58
261.782	-39.58
262.248	-67.58
262.713	-18.58
263.179	-64.58
263.645	49.42
264.11	-50.58
264.576	-16.58
265.042	-42.58
265.507	89.42
265.973	-20.58
266.439	-49.58
266.904	-27.58
267.37	-66.58
267.835	-59.58
268.301	-51.58
268.766	-98.58
269.232	-42.58
269.697	-68.58
270.162	-14.58
270.628	-60.58
271.093	21.42
271.559	23.42
272.024	-90.58
272.489	-22.58
272.955	27.42
273.42	16.42
273.885	-78.58
274.35	3.42
274.816	-132.58
275.281	-19.58
275.746	-94.58
276.211	-54.58
276.676	-36.58
277.141	-94.58
277.607	-43.58
278.072	-70.58
278.537	36.42
279.002	-105.58
279.467	6.42
279.932	-106.58
280.397	-58.58
280.862	13.42
281.327	-85.58
281.792	-63.58
282.257	-5.58
282.721	-111.58
283.186	-122.58
283.651	17.42
284.116	-1.58
284.581	-35.58
285.046	-61.58
285.51	-35.58
285.975	-126.58
286.44	-37.58
286.905	-29.58
287.369	-42.58
287.834	-100.58
288.299	-44.58
288.763	-85.58
289.228	-52.58
289.692	23.42
290.157	-92.58
290.621	-17.58
291.086	-80.58
291.55	-44.58
292.015	-106.58
292.479	-31.58
292.944	-41.58
293.408	-62.58
293.873	-64.58
294.337	-38.58
294.801	-85.58
295.266	11.42
295.73	-32.58
296.194	16.42
296.659	-102.58
297.123	-5.58
297.587	-64.58
298.052	-105.58
298.516	-53.58
298.98	-40.58
299.444	-21.58
299.908	-15.58
300.372	-31.58
300.836	-86.58
301.301	-6.58
301.765	-2.58
302.229	-63.58
302.693	-56.58
303.157	-65.58
303.621	-59.58
304.085	-1.58
304.549	-37.58
305.013	-56.58
305.476	-76.58
305.94	-47.58
306.404	-104.58
306.868	-76.58
307.332	13.42
307.796	-38.58
308.259	-65.58
308.723	-36.58
309.187	-52.58
309.651	-94.58
310.114	-30.58
310.578	9.42
311.042	-88.58
311.505	31.42
311.969	3.42
312.433	-61.58
312.896	-56.58
313.36	-130.58
313.823	-48.58
314.287	-23.58
314.75	-68.58
315.214	-46.58
315.677	-63.58
316.141	-51.58
316.604	-0.58
317.068	-41.58
317.531	-53.58
317.994	-106.58
318.458	-21.58
318.921	-59.58
319.384	-39.58
319.848	-69.58
320.311	-81.58
320.774	-53.58
321.237	-81.58
321.7	-47.58
322.164	-42.58
322.627	-64.58
323.09	-22.58
323.553	-25.58
324.016	46.42
324.479	-37.58
324.942	-68.58
325.405	-80.58
325.868	-30.58
326.331	-64.58
326.794	-62.58
327.257	-23.58
327.72	-34.58
328.183	-27.58
328.646	-93.58
329.109	-65.58
329.572	8.42
330.034	-58.58
330.497	-20.58
330.96	-29.58
331.423	-37.58
331.886	-33.58
332.348	-65.58
332.811	-69.58
333.274	-41.58
333.736	-3.58
334.199	-63.58
334.662	-107.58
335.124	-55.58
335.587	-30.58
336.049	-31.58
336.512	-41.58
336.974	-135.58
337.437	-86.58
337.899	19.42
338.362	-71.58
338.824	-47.58
339.287	-95.58
339.749	-12.58
340.212	-79.58
340.674	-15.58
341.136	6.42
341.599	-62.58
342.061	-71.58
342.523	7.42
342.985	-39.58
343.448	-36.58
343.91	-3.58
344.372	-55.58
344.834	-55.58
345.296	-19.58
345.758	-65.58
346.221	-47.58
346.683	-62.58
347.145	-25.58
347.607	-85.58
348.069	-19.58
348.531	-104.58
348.993	-88.58
349.455	-26.58
349.917	-96.58
350.379	-1.58
350.84	-99.58
351.302	20.42
351.764	-61.58
352.226	2.42
352.688	-30.58
353.15	-19.58
353.611	-83.58
354.073	-36.58
354.535	-76.58
354.997	-47.58
355.458	-33.58
355.92	-90.58
356.382	-7.58
356.843	-90.58
357.305	-80.58
357.767	-5.58
358.228	-23.58
358.69	-91.58
359.151	-17.58
359.613	-55.58
360.074	-89.58
360.536	40.42
360.997	-75.58
361.458	-21.58
361.92	-77.58
362.381	-56.58
362.843	-68.58
363.304	-56.58
363.765	-108.58
364.227	-115.58
364.688	-28.58
365.149	-53.58
365.61	-57.58
366.072	-25.58
366.533	-21.58
366.994	-36.58
367.455	-32.58
367.916	-46.58
368.377	21.42
368.838	-60.58
369.299	-3.58
369.761	-63.58
370.222	-84.58
370.683	-62.58
371.144	-55.58
371.604	10.42
372.065	14.42
372.526	-30.58
372.987	-43.58
373.448	-93.58
373.909	16.42
374.37	-65.58
374.831	-29.58
375.291	-28.58
375.752	-60.58
376.213	64.42
376.674	-12.58
377.134	6.42
377.595	-50.58
378.056	-81.58
378.516	-75.58
378.977	-26.58
379.438	-91.58
379.898	-29.58
380.359	-35.58
380.819	-106.58
381.28	-15.58
381.74	-75.58
382.201	-10.58
382.661	-87.58
383.122	-51.58
383.582	-61.58
384.042	-77.58
384.503	-80.58
384.963	-0.58
385.424	-73.58
385.884	-44.58
386.344	-81.58
386.804	-52.58
387.265	-88.58
387.725	31.42
388.185	-66.58
388.645	-7.58
389.105	-22.58
389.566	-45.58
390.026	-27.58
390.486	-97.58
390.946	-47.58
391.406	-64.58
391.866	-13.58
392.326	-37.58
392.786	-95.58
393.246	-67.58
393.706	8.42
394.166	10.42
394.626	-89.58
395.085	-10.58
395.545	-85.58
396.005	-44.58
396.465	-79.58
396.925	-53.58
397.385	-61.58
397.844	-82.58
398.304	-85.58
398.764	-80.58
399.223	-40.58
399.683	43.42
400.143	-16.58
400.602	-56.58
401.062	0.42
401.522	-61.58
401.981	-99.58
402.441	-35.58
402.9	-40.58
403.36	-32.58
403.819	-31.58
404.279	-79.58
404.738	-62.58
405.197	-34.58
405.657	-49.58
406.116	-55.58
406.576	-114.58
407.035	-14.58
407.494	-25.58
407.953	-115.58
408.413	-60.58
408.872	-63.58
409.331	-32.58
409.79	11.42
410.25	-73.58
410.709	-13.58
411.168	-36.58
411.627	-79.58
412.086	-48.58
412.545	-66.58
413.004	-84.58
413.463	-48.58
413.922	-103.58
414.381	-107.58
414.84	-74.58
415.299	-98.58
415.758	-38.58
416.217	-83.58
416.676	-43.58
417.135	-23.58
417.593	-17.58
418.052	-69.58
418.511	-40.58
418.97	-40.58
419.429	128.42
419.887	-7.58
420.346	-72.58
420.805	-83.58
421.263	25.42
421.722	-85.58
422.181	-88.58
422.639	-29.58
423.098	37.42
423.556	-32.58
424.015	-41.58
424.473	-75.58
424.932	-19.58
425.39	-62.58
425.849	-21.58
426.307	-16.58
426.765	-30.58
427.224	-54.58
427.682	-98.58
428.14	-12.58
428.599	-100.58
429.057	-8.58
429.515	-118.58
429.974	-51.58
430.432	7.42
430.89	73.42
431.348	-59.58
431.806	-66.58
432.264	-18.58
432.723	-18.58
433.181	-35.58
433.639	-4.58
434.097	-128.58
434.555	-46.58
435.013	-92.58
435.471	-83.58
435.929	-147.58
436.387	-34.58
436.845	-37.58
437.303	60.42
437.76	-113.58
438.218	10.42
438.676	-2.58
439.134	-42.58
439.592	-55.58
440.049	-39.58
440.507	-33.58
440.965	-35.58
441.423	-87.58
441.88	-109.58
442.338	6.42
442.796	-41.58
443.253	-32.58
443.711	-93.58
444.168	-59.58
444.626	-38.58
445.083	-50.58
445.541	34.42
445.998	-74.58
446.456	-22.58
446.913	9.42
447.371	-72.58
447.828	-90.58
448.285	0.42
448.743	-142.58
449.2	-70.58
449.657	-70.58
450.115	-125.58
450.572	-30.58
451.029	-59.58
451.486	-53.58
451.944	-14.58
452.401	-98.58
452.858	-69.58
453.315	-69.58
453.772	-52.58
454.229	-51.58
454.686	-64.58
455.143	-48.58
455.6	15.42
456.057	-45.58
456.514	-4.58
456.971	-43.58
457.428	-20.58
457.885	-55.58
458.342	-33.58
458.799	-102.58
459.256	-32.58
459.712	-45.58
460.169	5.42
460.626	-84.58
461.083	-52.58
461.539	-30.58
461.996	3.42
462.453	-4.58
462.909	-74.58
463.366	-55.58
463.823	-139.58
464.279	-67.58
464.736	111.42
465.192	-104.58
465.649	-84.58
466.105	-7.58
466.562	-36.58
467.018	-31.58
467.475	-35.58
467.931	-25.58
468.388	15.42
468.844	5.42
469.3	-56.58
469.757	-30.58
470.213	-107.58
470.669	-18.58
471.126	-40.58
471.582	-78.58
472.038	-40.58
472.494	-36.58
472.95	-46.58
473.406	-72.58
473.863	-50.58
474.319	-103.58
474.775	4.42
475.231	-73.58
475.687	-45.58
476.143	-93.58
476.599	32.42
477.055	-50.58
477.511	-23.58
477.967	-24.58
478.423	-74.58
478.879	-28.58
479.334	-24.58
479.79	-23.58
480.246	-80.58
480.702	-82.58
481.158	-76.58
481.613	-101.58
482.069	-26.58
482.525	12.42
482.98	18.42
483.436	-119.58
483.892	-14.58
484.347	-52.58
484.803	-22.58
485.258	-25.58
485.714	-81.58
486.169	-54.58
486.625	-76.58
487.08	-45.58
487.536	-44.58
487.991	-69.58
488.447	35.42
488.902	-67.58
489.357	-26.58
489.813	-34.58
490.268	-71.58
490.723	-33.58
491.179	-83.58
491.634	-22.58
492.089	-46.58
492.544	-75.58
493	-78.58
493.455	-51.58
493.91	-55.58
494.365	-13.58
494.82	-21.58
495.275	-24.58
495.73	-23.58
496.185	-2.58
496.64	-10.58
497.095	-36.58
497.55	19.42
498.005	-26.58
498.46	-77.58
498.915	32.42
499.37	-31.58
499.825	-93.58
500.279	-127.58
500.734	-46.58
501.189	-90.58
501.644	-35.58
502.098	-97.58
502.553	14.42
503.008	-77.58
503.462	-7.58
503.917	-16.58
504.372	-19.58
504.826	-13.58
505.281	-84.58
505.735	-47.58
506.19	-5.58
506.644	-63.58
507.099	-7.58
507.553	-100.58
508.008	-19.58
508.462	-21.58
508.917	-53.58
509.371	-39.58
509.825	-10.58
510.28	52.42
510.734	78.42
511.188	-49.58
511.642	-26.58
512.097	-0.58
512.551	-18.58
513.005	-41.58
513.459	-114.58
513.913	4.42
514.367	-123.58
514.822	-71.58
515.276	16.42
515.73	-45.58
516.184	-25.58
516.638	12.42
517.092	-85.58
517.546	-2.58
517.999	-60.58
518.453	-55.58
518.907	-44.58
519.361	-85.58
519.815	-47.58
520.269	-51.58
520.723	-63.58
521.176	-59.58
521.63	-101.58
522.084	-47.58
522.538	-104.58
522.991	-46.58
523.445	-103.58
523.898	-24.58
524.352	2.42
524.806	-80.58
525.259	-31.58
525.713	-120.58
526.166	-81.58
526.62	15.42
527.073	-11.58
527.527	-64.58
527.98	-41.58
528.433	-12.58
528.887	-90.58
529.34	-39.58
529.794	-49.58
530.247	-49.58
530.7	-87.58
531.153	-8.58
531.607	-82.58
532.06	-45.58
532.513	-31.58
532.966	-17.58
533.419	-51.58
533.872	-37.58
534.326	-52.58
534.779	-9.58
535.232	-27.58
535.685	-30.58
536.138	-34.58
536.591	-21.58
537.044	-78.58
537.497	-5.58
537.95	-23.58
538.402	-40.58
538.855	-121.58
539.308	7.42
539.761	-58.58
540.214	-16.58
540.667	-48.58
541.119	-28.58
541.572	-86.58
542.025	-18.58
542.477	-74.58
542.93	-49.58
543.383	-86.58
543.835	-45.58
544.288	-30.58
544.74	-88.58
545.193	-47.58
545.645	-85.58
546.098	-40.58
546.55	-63.58
547.003	-8.58
547.455	-26.58
547.908	-37.58
548.36	35.42
548.812	-14.58
549.265	-73.58
549.717	-77.58
550.169	-48.58
550.622	-57.58
551.074	-59.58
551.526	-84.58
551.978	14.42
552.43	-91.58
552.883	-111.58
553.335	-46.58
553.787	-75.58
554.239	29.42
554.691	-58.58
555.143	-99.58
555.595	-19.58
556.047	-90.58
556.499	-48.58
556.951	-85.58
557.403	-6.58
557.855	-48.58
558.307	8.42
558.758	-109.58
559.21	-80.58
559.662	-6.58
560.114	-54.58
560.565	-63.58
561.017	14.42
561.469	6.42
561.921	44.42
562.372	-82.58
562.824	-44.58
563.275	-15.58
563.727	-3.58
564.179	4.42
564.63	-57.58
565.082	-15.58
565.533	-40.58
565.985	-51.58
566.436	-27.58
566.887	8.42
567.339	-69.58
567.79	-15.58
568.242	35.42
568.693	0.42
569.144	-90.58
569.595	-102.58
570.047	31.42
570.498	-80.58
570.949	-57.58
571.4	-92.58
571.851	-38.58
572.303	96.42
572.754	-96.58
573.205	-41.58
573.656	16.42
574.107	-54.58
574.558	-84.58
575.009	-63.58
575.46	-64.58
575.911	-15.58
576.362	-87.58
576.813	-24.58
577.263	-18.58
577.714	-64.58
578.165	-92.58
578.616	-88.58
579.067	-16.58
579.517	-41.58
579.968	10.42
580.419	-64.58
580.87	-128.58
581.32	-95.58
581.771	-24.58
582.222	-15.58
582.672	7.42
583.123	-33.58
583.573	-1.58
584.024	46.42
584.474	-50.58
584.925	-46.58
585.375	-82.58
585.826	-128.58
586.276	-65.58
586.726	-1.58
587.177	-9.58
587.627	-124.58
588.077	-76.58
588.528	-49.58
588.978	0.42
589.428	-105.58
589.878	-14.58
590.328	-55.58
590.779	-18.58
591.229	-69.58
591.679	-42.58
592.129	-28.58
592.579	-27.58
593.029	-71.58
593.479	-95.58
593.929	10.42
594.379	-37.58
594.829	-32.58
595.279	-50.58
595.729	22.42
596.179	-55.58
596.628	52.42
597.078	-83.58
597.528	-116.58
597.978	-25.58
598.428	-7.58
598.877	-119.58
599.327	63.42
599.777	-105.58
600.226	-8.58
600.676	-103.58
601.126	3.42
601.575	-128.58
602.025	-49.58
602.474	-25.58
602.924	0.42
603.373	-13.58
603.823	-46.58
604.272	-60.58
604.722	36.42
605.171	-59.58
605.62	-153.58
606.07	-24.58
606.519	-72.58
606.968	-36.58
607.418	-70.58
607.867	-29.58
608.316	-68.58
608.765	-6.58
609.214	-20.58
609.664	-88.58
610.113	-23.58
610.562	-26.58
611.011	14.42
611.46	-76.58
611.909	-6.58
612.358	51.42
612.807	-22.58
613.256	-114.58
613.705	41.42
614.154	-116.58
614.603	-114.58
615.051	-40.58
615.5	-49.58
615.949	27.42
616.398	20.42
616.847	-19.58
617.295	-45.58
617.744	-25.58
618.193	-4.58
618.641	-95.58
619.09	-55.58
619.539	-81.58
619.987	-11.58
620.436	-75.58
620.884	-28.58
621.333	-59.58
621.781	-39.58
622.23	117.42
622.678	-70.58
623.127	-2.58
623.575	-36.58
624.024	-34.58
624.472	-70.58
624.92	25.42
625.369	-131.58
625.817	10.42
626.265	-14.58
626.713	-52.58
627.161	-63.58
627.61	-39.58
628.058	-6.58
628.506	-59.58
628.954	-70.58
629.402	-63.58
629.85	-61.58
630.298	-22.58
630.746	-108.58
631.194	-48.58
631.642	-15.58
632.09	-33.58
632.538	-19.58
632.986	18.42
633.434	-8.58
633.882	-34.58
634.329	-28.58
634.777	-58.58
635.225	-54.58
635.673	-33.58
636.12	-6.58
636.568	7.42
637.016	-74.58
637.463	15.42
637.911	-60.58
638.359	22.42
638.806	-6.58
639.254	-26.58
639.701	-47.58
640.149	-23.58
640.596	-40.58
641.044	-44.58
641.491	-52.58
641.938	-35.58
642.386	32.42
642.833	-21.58
643.281	-76.58
643.728	-83.58
644.175	-18.58
644.622	-17.58
645.07	-29.58
645.517	-126.58
645.964	-35.58
646.411	-14.58
646.858	-58.58
647.305	-60.58
647.752	-104.58
648.199	-6.58
648.646	33.42
649.093	-48.58
649.54	-82.58
649.987	8.42
650.434	-87.58
650.881	-69.58
651.328	-38.58
651.775	-26.58
652.222	-46.58
652.669	-65.58
653.115	-25.58
653.562	-60.58
654.009	-61.58
654.456	-54.58
654.902	-35.58
655.349	-99.58
655.796	-81.58
656.242	-13.58
656.689	-31.58
657.135	-30.58
657.582	-85.58
658.028	-33.58
658.475	-80.58
658.921	-18.58
659.368	-13.58
659.814	-56.58
660.26	-75.58
660.707	-64.58
661.153	-47.58
661.599	-33.58
662.046	-114.58
662.492	-42.58
662.938	-29.58
663.384	-33.58
663.831	-66.58
664.277	20.42
664.723	9.42
665.169	-16.58
665.615	-72.58
666.061	-65.58
666.507	-15.58
666.953	-21.58
667.399	18.42
667.845	-33.58
668.291	-50.58
668.737	-61.58
669.183	9.42
669.629	-60.58
670.075	-61.58
670.52	-101.58
670.966	-56.58
671.412	-111.58
671.858	-4.58
672.303	-67.58
672.749	25.42
673.195	-70.58
673.64	-53.58
674.086	-25.58
674.532	-41.58
674.977	3.42
675.423	-30.58
675.868	10.42
676.314	-16.58
676.759	71.42
677.205	-81.58
677.65	-87.58
678.095	-70.58
678.541	14.42
678.986	-45.58
679.431	-105.58
679.877	-25.58
680.322	-18.58
680.767	-30.58
681.212	-50.58
681.658	-31.58
682.103	-108.58
682.548	-6.58
682.993	15.42
683.438	-26.58
683.883	-45.58
684.328	-29.58
684.773	-80.58
685.218	-12.58
685.663	-30.58
686.108	-88.58
686.553	-8.58
686.998	-35.58
687.443	7.42
687.887	-33.58
688.332	-42.58
688.777	-59.58
689.222	-39.58
689.667	-59.58
690.111	41.42
690.556	-36.58
691.001	-26.58
691.445	121.42
691.89	-69.58
692.334	-100.58
692.779	-33.58
693.223	-94.58
693.668	-5.58
694.112	-35.58
694.557	-67.58
695.001	-42.58
695.446	-74.58
695.89	-34.58
696.334	31.42
696.779	-53.58
697.223	-44.58
697.667	-4.58
698.112	-74.58
698.556	-55.58
699	-68.58
699.444	-115.58
699.888	-21.58
700.332	25.42
700.777	-90.58
701.221	-49.58
701.665	86.42
702.109	-91.58
702.553	49.42
702.997	14.42
703.441	-33.58
703.885	-101.58
704.328	-38.58
704.772	-40.58
705.216	-52.58
705.66	-77.58
706.104	-4.58
706.548	-84.58
706.991	-133.58
707.435	-24.58
707.879	-79.58
708.322	-74.58
708.766	-44.58
709.21	-5.58
709.653	-58.58
710.097	-5.58
710.54	-17.58
710.984	-58.58
711.427	-33.58
711.871	-70.58
712.314	360.42
712.758	-53.58
713.201	25.42
713.644	-36.58
714.088	28.42
714.531	1.42
714.974	-60.58
715.418	-11.58
715.861	-22.58
716.304	-22.58
716.747	-44.58
717.19	-49.58
717.634	-32.58
718.077	-57.58
718.52	-112.58
718.963	-29.58
719.406	-98.58
719.849	-26.58
720.292	-15.58
720.735	-90.58
721.178	-7.58
721.621	-57.58
722.063	-9.58
722.506	14.42
722.949	15.42
723.392	-48.58
723.835	-76.58
724.277	-45.58
724.72	-44.58
725.163	-38.58
725.605	-36.58
726.048	-86.58
726.491	-52.58
726.933	10.42
727.376	-42.58
727.818	-118.58
728.261	-57.58
728.703	-5.58
729.146	-54.58
729.588	-30.58
730.031	-31.58
730.473	30.42
730.916	-33.58
731.358	-69.58
731.8	-28.58
732.242	-28.58
732.685	-77.58
733.127	-43.58
733.569	-21.58
734.011	-111.58
734.453	-12.58
734.896	-12.58
735.338	-69.58
735.78	-10.58
736.222	-105.58
736.664	-42.58
737.106	-99.58
737.548	-26.58
737.99	10.42
738.432	-6.58
738.874	-32.58
739.315	-56.58
739.757	-39.58
740.199	-53.58
740.641	-108.58
741.083	-115.58
741.524	11.42
741.966	-91.58
742.408	-10.58
742.849	-64.58
743.291	-79.58
743.733	28.42
744.174	-55.58
744.616	-88.58
745.057	-0.58
745.499	-111.58
745.94	-46.58
746.382	-23.58
746.823	0.42
747.265	-101.58
747.706	-72.58
748.147	4.42
748.589	-27.58
749.03	-20.58
749.471	-73.58
749.913	-33.58
750.354	-34.58
750.795	-65.58
751.236	-8.58
751.677	-26.58
752.118	-29.58
752.559	116.42
753.001	-25.58
753.442	-33.58
753.883	45.42
754.324	-53.58
754.765	-80.58
755.205	-11.58
755.646	-26.58
756.087	-20.58
756.528	44.42
756.969	-34.58
757.41	-49.58
757.851	24.42
758.291	-63.58
758.732	-34.58
759.173	-92.58
759.613	-10.58
760.054	-48.58
760.495	-47.58
760.935	-81.58
761.376	-65.58
761.816	-71.58
762.257	-27.58
762.697	-47.58
763.138	3.42
763.578	6.42
764.019	177.42
764.459	19.42
764.899	-10.58
765.34	51.42
765.78	43.42
766.22	-13.58
766.661	30.42
767.101	49.42
767.541	9.42
767.981	83.42
768.421	40.42
768.861	77.42
769.302	1.42
769.742	86.42
770.182	148.42
770.622	204.42
771.062	122.42
771.502	232.42
771.942	142.42
772.382	278.42
772.821	223.42
773.261	249.42
773.701	261.42
774.141	280.42
774.581	347.42
775.02	329.42
775.46	311.42
775.9	383.42
776.34	473.42
776.779	553.42
777.219	404.42
777.658	467.42
778.098	555.42
778.538	527.42
778.977	635.42
779.417	678.42
779.856	701.42
780.295	634.42
780.735	696.42
781.174	773.42
781.614	772.42
782.053	898.42
782.492	783.42
782.931	893.42
783.371	899.42
783.81	959.42
784.249	1071.42
784.688	1027.42
785.127	1163.42
785.567	1101.42
786.006	1218.42
786.445	1154.42
786.884	1266.42
787.323	1191.42
787.762	1300.42
788.201	1304.42
788.64	1449.42
789.079	1463.42
789.517	1459.42
789.956	1573.42
790.395	1688.42
790.834	1705.42
791.273	1671.42
791.711	1601.42
792.15	1677.42
792.589	1830.42
793.028	1722.42
793.466	1698.42
793.905	1857.42
794.343	1773.42
794.782	1822.42
795.22	1882.42
795.659	1907.42
796.097	2075.42
796.536	2020.42
796.974	2052.42
797.413	1941.42
797.851	1998.42
798.289	2026.42
798.728	2019.42
799.166	2091.42
799.604	2108.42
800.043	2035.42
800.481	2098.42
800.919	1943.42
801.357	1919.42
801.795	2150.42
802.233	2037.42
802.672	1989.42
803.11	1968.42
803.548	1851.42
803.986	1867.42
804.424	1851.42
804.862	1850.42
805.299	1816.42
805.737	1703.42
806.175	1745.42
806.613	1493.42
807.051	1571.42
807.489	1582.42
807.926	1533.42
808.364	1419.42
808.802	1512.42
809.24	1308.42
809.677	1176.42
810.115	1200.42
810.552	1251.42
810.99	1157.42
811.427	1184.42
811.865	1001.42
812.303	953.42
812.74	876.42
813.177	818.42
813.615	756.42
814.052	825.42
814.49	814.42
814.927	770.42
815.364	707.42
815.801	613.42
816.239	610.42
816.676	593.42
817.113	486.42
817.55	451.42
817.987	414.42
818.425	369.42
818.862	356.42
819.299	359.42
819.736	298.42
820.173	362.42
820.61	274.42
821.047	286.42
821.484	372.42
821.92	233.42
822.357	294.42
822.794	201.42
823.231	98.42
823.668	283.42
824.105	129.42
824.541	110.42
824.978	128.42
825.415	62.42
825.851	129.42
826.288	10.42
826.725	132.42
827.161	109.42
827.598	110.42
828.034	44.42
828.471	-36.58
828.907	61.42
829.344	22.42
829.78	14.42
830.216	-11.58
830.653	49.42
831.089	35.42
831.525	53.42
831.962	15.42
832.398	-7.58
832.834	-22.58
833.27	7.42
833.707	-25.58
834.143	19.42
834.579	66.42
835.015	-84.58
835.451	-63.58
835.887	-5.58
836.323	-1.58
836.759	-74.58
837.195	7.42
837.631	3.42
838.067	-32.58
838.503	59.42
838.938	15.42
839.374	-58.58
839.81	199.42
840.246	-167.58
840.682	0.42
841.117	-58.58
841.553	9.42
841.989	-38.58
842.424	-17.58
842.86	-41.58
843.295	-48.58
843.731	-20.58
844.166	-29.58
844.602	-80.58
845.037	-0.58
845.473	-123.58
845.908	28.42
846.344	-24.58
846.779	-79.58
847.214	-71.58
847.649	-8.58
848.085	1.42
848.52	-51.58
848.955	-48.58
849.39	-70.58
849.826	-41.58
850.261	-57.58
850.696	-70.58
851.131	-25.58
851.566	-61.58
852.001	-63.58
852.436	4.42
852.871	2.42
853.306	-4.58
853.741	-73.58
854.176	-35.58
854.61	-17.58
855.045	-35.58
855.48	7.42
855.915	-82.58
856.35	-49.58
856.784	-21.58
857.219	-22.58
857.654	-32.58
858.088	-113.58
858.523	-68.58
858.958	-53.58
859.392	-37.58
859.827	-77.58
860.261	-104.58
860.696	-75.58
861.13	-31.58
861.564	-11.58
861.999	-86.58
862.433	-96.58
862.868	-79.58
863.302	-21.58
863.736	-67.58
864.17	-52.58
864.605	-100.58
865.039	-75.58
865.473	-48.58
865.907	-46.58
866.341	-7.58
866.775	-31.58
867.209	8.42
867.643	-90.58
868.077	-32.58
868.511	-76.58
868.945	-13.58
869.379	-44.58
869.813	-18.58
870.247	-25.58
870.681	-32.58
871.115	-60.58
871.548	-99.58
871.982	-104.58
872.416	-85.58
872.85	-53.58
873.283	6.42
873.717	47.42
874.151	-15.58
874.584	-97.58
875.018	-44.58
875.451	-23.58
875.885	-15.58
876.318	-75.58
876.752	-57.58
877.185	59.42
877.618	8.42
878.052	-74.58
878.485	-37.58
878.918	-87.58
879.352	-29.58
879.785	5.42
880.218	17.42
880.651	-35.58
881.085	111.42
881.518	-23.58
881.951	-8.58
882.384	-45.58
882.817	6.42
883.25	-53.58
883.683	-74.58
884.116	5.42
884.549	-129.58
884.982	50.42
885.415	-85.58
885.848	-3.58
886.28	-40.58
886.713	-37.58
887.146	-43.58
887.579	-7.58
888.012	48.42
888.444	-7.58
888.877	-82.58
889.31	-84.58
889.742	2.42
890.175	-96.58
890.607	2.42
891.04	-0.58
891.472	-7.58
891.905	-24.58
892.337	-16.58
892.77	10.42
893.202	-111.58
893.634	-61.58
894.067	-85.58
894.499	-79.58
894.931	-66.58
895.364	-46.58
895.796	-39.58
896.228	-18.58
896.66	-6.58
897.092	-43.58
897.524	-21.58
897.956	-71.58
898.389	-32.58
898.821	-53.58
899.253	59.42
899.685	-37.58
900.116	-8.58
900.548	-128.58
900.98	-75.58
901.412	-41.58
901.844	-71.58
902.276	-33.58
902.708	19.42
903.139	-49.58
903.571	-18.58
904.003	-92.58
904.434	123.42
904.866	0.42
905.298	7.42
905.729	-69.58
906.161	-72.58
906.592	-75.58
907.024	-52.58
907.455	-64.58
907.887	196.42
908.318	-8.58
908.749	49.42
909.181	-16.58
909.612	44.42
910.043	-31.58
910.475	-69.58
910.906	-33.58
911.337	-17.58
911.768	-6.58
912.199	69.42
912.63	6.42
913.062	-52.58
913.493	-16.58
913.924	-71.58
914.355	22.42
914.786	-56.58
915.217	-1.58
915.648	-66.58
916.078	-25.58
916.509	-74.58
916.94	-76.58
917.371	-33.58
917.802	-26.58
918.233	-13.58
918.663	-75.58
919.094	-20.58
919.525	-22.58
919.955	-22.58
920.386	20.42
920.816	-24.58
921.247	-35.58
921.678	-41.58
922.108	-12.58
922.539	-62.58
922.969	-63.58
923.399	-77.58
923.83	-28.58
924.26	101.42
924.69	14.42
925.121	-9.58
925.551	-67.58
925.981	-87.58
926.412	-21.58
926.842	-18.58
927.272	-81.58
927.702	-10.58
928.132	-74.58
928.562	36.42
928.992	-57.58
929.422	-6.58
929.852	16.42
930.282	-28.58
930.712	-12.58
931.142	-38.58
931.572	-81.58
932.002	1.42
932.432	-88.58
932.861	-6.58
933.291	-27.58
933.721	16.42
934.151	-102.58
934.58	-18.58
935.01	-49.58
935.439	-51.58
935.869	-9.58
936.299	-24.58
936.728	-90.58
937.158	-36.58
937.587	-84.58
938.017	-20.58
938.446	-104.58
938.875	-36.58
939.305	-94.58
939.734	-65.58
940.163	21.42
940.593	-54.58
941.022	-35.58
941.451	1.42
941.88	-49.58
942.309	-18.58
942.739	-33.58
943.168	-65.58
943.597	-18.58
944.026	-11.58
944.455	-100.58
944.884	50.42
945.313	-97.58
945.742	-54.58
946.171	-53.58
946.6	-23.58
947.028	-46.58
947.457	-12.58
947.886	-57.58
948.315	38.42
948.743	-6.58
949.172	2.42
949.601	-51.58
950.029	-104.58
950.458	35.42
950.887	-36.58
951.315	-66.58
951.744	-7.58
952.172	-35.58
952.601	-61.58
953.029	-39.58
953.458	-47.58
953.886	-35.58
954.314	-25.58
954.743	7.42
955.171	17.42
955.599	-18.58
956.027	-7.58
956.456	-10.58
956.884	-71.58
957.312	10.42
957.74	-71.58
958.168	57.42
958.596	-71.58
959.024	-63.58
959.452	4.42
959.88	-30.58
960.308	-13.58
960.736	-63.58
961.164	55.42
961.592	-93.58
962.02	-33.58
962.448	-112.58
962.875	-59.58
963.303	26.42
963.731	-54.58
964.159	-59.58
964.586	10.42
965.014	-10.58
965.441	-73.58
965.869	-29.58
966.297	-24.58
966.724	-38.58
967.152	22.42
967.579	-96.58
968.006	25.42
968.434	-51.58
968.861	-17.58
969.289	-13.58
969.716	-61.58
970.143	-109.58
970.57	0.42
970.998	-117.58
971.425	-24.58
971.852	-32.58
972.279	-21.58
972.706	-85.58
973.133	129.42
973.56	-69.58
973.987	-41.58
974.414	-21.58
974.841	8.42
975.268	-5.58
975.695	-12.58
976.122	-79.58
976.549	-10.58
976.976	-50.58
977.403	125.42
977.829	44.42
978.256	-47.58
978.683	-60.58
979.109	-71.58
979.536	32.42
979.963	-44.58
980.389	-46.58
980.816	9.42
981.242	-20.58
981.669	-93.58
982.095	-6.58
982.522	-85.58
982.948	-12.58
983.375	-21.58
983.801	-20.58
984.227	-38.58
984.653	45.42
985.08	-41.58
985.506	37.42
985.932	-53.58
986.358	-88.58
986.785	-21.58
987.211	-42.58
987.637	-100.58
988.063	1.42
988.489	-17.58
988.915	-74.58
989.341	-30.58
989.767	7.42
990.193	24.42
990.619	-58.58
991.044	-40.58
991.47	68.42
991.896	-23.58
992.322	-56.58
992.748	-23.58
993.173	-1.58
993.599	18.42
994.025	25.42
994.45	-29.58
994.876	-85.58
995.301	3.42
995.727	-31.58
996.152	-47.58
996.578	-24.58
997.003	39.42
997.429	-58.58
997.854	-26.58
998.279	-31.58
998.705	-20.58
999.13	-57.58
999.555	-31.58
999.981	-20.58
1000.406	-11.58
1000.831	-3.58
1001.256	3.42
1001.681	22.42
1002.106	-60.58
1002.531	-36.58
1002.956	-45.58
1003.381	-51.58
1003.806	-82.58
1004.231	59.42
1004.656	-118.58
1005.081	-66.58
1005.506	-6.58
1005.931	-9.58
1006.356	8.42
1006.78	11.42
1007.205	13.42
1007.63	59.42
1008.054	-75.58
1008.479	-49.58
1008.904	-44.58
1009.328	-56.58
1009.753	-42.58
1010.177	-31.58
1010.602	-6.58
1011.026	-50.58
1011.451	-85.58
1011.875	2.42
1012.3	-29.58
1012.724	-38.58
1013.148	5.42
1013.572	-55.58
1013.997	-71.58
1014.421	-44.58
1014.845	-50.58
1015.269	-32.58
1015.694	-4.58
1016.118	-120.58
1016.542	-12.58
1016.966	-26.58
1017.39	-4.58
1017.814	-52.58
1018.238	118.42
1018.662	-109.58
1019.086	-71.58
1019.509	-25.58
1019.933	-21.58
1020.357	-57.58
1020.781	-30.58
1021.205	-60.58
1021.628	-39.58
1022.052	19.42
1022.476	9.42
1022.899	-39.58
1023.323	-2.58
1023.747	-15.58
1024.17	-62.58
1024.594	-44.58
1025.017	-82.58
1025.441	-49.58
1025.864	-61.58
1026.287	-70.58
1026.711	-114.58
1027.134	-8.58
1027.557	-91.58
1027.981	39.42
1028.404	3.42
1028.827	-45.58
1029.25	-0.58
1029.673	-33.58
1030.097	-19.58
1030.52	-89.58
1030.943	14.42
1031.366	-27.58
1031.789	73.42
1032.212	-26.58
1032.635	-28.58
1033.058	-85.58
1033.481	-27.58
1033.903	-52.58
1034.326	-19.58
1034.749	-81.58
1035.172	-34.58
1035.595	-10.58
1036.017	-70.58
1036.44	-99.58
1036.863	-7.58
1037.285	-79.58
1037.708	-51.58
1038.13	-35.58
1038.553	4.42
1038.975	-20.58
1039.398	-83.58
1039.82	-34.58
1040.243	-26.58
1040.665	-56.58
1041.087	-36.58
1041.51	-30.58
1041.932	-40.58
1042.354	-37.58
1042.777	-53.58
1043.199	-25.58
1043.621	-33.58
1044.043	19.42
1044.465	-70.58
1044.887	-19.58
1045.309	-1.58
1045.731	-12.58
1046.153	-84.58
1046.575	-49.58
1046.997	-21.58
1047.419	-46.58
1047.841	-44.58
1048.263	-34.58
1048.685	6.42
1049.106	-20.58
1049.528	-58.58
1049.95	-34.58
1050.372	-12.58
1050.793	-48.58
1051.215	115.42
1051.636	-26.58
1052.058	-7.58
1052.48	-59.58
1052.901	-32.58
1053.323	-127.58
1053.744	-20.58
1054.165	-182.58
1054.587	-88.58
1055.008	-6.58
1055.429	-71.58
1055.851	3.42
1056.272	-41.58
1056.693	-28.58
1057.114	-38.58
1057.536	-64.58
1057.957	-6.58
1058.378	-76.58
1058.799	-10.58
1059.22	-62.58
1059.641	-5.58
1060.062	-15.58
1060.483	-40.58
1060.904	-40.58
1061.325	-29.58
1061.746	-20.58
1062.166	-107.58
1062.587	22.42
1063.008	76.42
1063.429	-43.58
1063.85	-7.58
1064.27	-14.58
1064.691	174.42
1065.112	-11.58
1065.532	-88.58
1065.953	-92.58
1066.373	-20.58
1066.794	26.42
1067.214	-9.58
1067.635	-6.58
1068.055	20.42
1068.475	-74.58
1068.896	-7.58
1069.316	-70.58
1069.736	8.42
1070.157	-121.58
1070.577	-57.58
1070.997	34.42
1071.417	6.42
1071.837	-28.58
1072.258	-31.58
1072.678	6.42
1073.098	-30.58
1073.518	-74.58
1073.938	-73.58
1074.358	-42.58
1074.778	-79.58
1075.197	-1.58
1075.617	51.42
1076.037	-37.58
1076.457	75.42
1076.877	-73.58
1077.296	-49.58
1077.716	-16.58
1078.136	-21.58
1078.556	-43.58
1078.975	-102.58
1079.395	-76.58
1079.814	32.42
1080.234	-81.58
1080.653	-24.58
1081.073	-71.58
1081.492	-56.58
1081.912	-11.58
1082.331	-45.58
1082.75	28.42
1083.17	-62.58
1083.589	-33.58
1084.008	-100.58
1084.427	28.42
1084.847	-29.58
1085.266	25.42
1085.685	-34.58
1086.104	-14.58
1086.523	-56.58
1086.942	-30.58
1087.361	-80.58
1087.78	-43.58
1088.199	-7.58
1088.618	76.42
1089.037	9.42
1089.456	-96.58
1089.875	3.42
1090.293	-91.58
1090.712	-5.58
1091.131	-8.58
1091.55	6.42
1091.968	-95.58
1092.387	46.42
1092.805	-73.58
1093.224	-52.58
1093.643	-88.58
1094.061	-42.58
1094.48	-28.58
1094.898	-64.58
1095.316	-99.58
1095.735	-56.58
1096.153	-26.58
1096.572	-55.58
1096.99	-124.58
1097.408	39.42
1097.826	-73.58
1098.245	-2.58
1098.663	-59.58
1099.081	-17.58
1099.499	-71.58
1099.917	-9.58
1100.335	-42.58
1100.753	-77.58
1101.171	-76.58
1101.589	-15.58
1102.007	-77.58
1102.425	83.42
1102.843	-36.58
1103.261	-55.58
1103.678	-76.58
1104.096	9.42
1104.514	-61.58
1104.932	67.42
1105.349	-39.58
1105.767	15.42
1106.185	-45.58
1106.602	-42.58
1107.02	-62.58
1107.437	-35.58
1107.855	-17.58
1108.272	-47.58
1108.69	-64.58
1109.107	-54.58
1109.524	-55.58
1109.942	-49.58
1110.359	-76.58
1110.776	-39.58
1111.194	-14.58
1111.611	17.42
1112.028	-92.58
1112.445	16.42
1112.862	61.42
1113.279	-39.58
1113.696	88.42
1114.114	-50.58
1114.531	-74.58
1114.947	-115.58
1115.364	63.42
1115.781	-87.58
1116.198	-60.58
1116.615	-30.58
1117.032	5.42
1117.449	7.42
1117.865	-57.58
1118.282	15.42
1118.699	-124.58
1119.115	-105.58
1119.532	-69.58
1119.949	7.42
1120.365	-48.58
1120.782	0.42
1121.198	27.42
1121.615	12.42
1122.031	-12.58
